"Time (ms)","Recording (a.u.)"
0.000000000E0,5.686318618E-4
2.083412250E-2,1.198052429E-3
4.166824501E-2,1.827945234E-3
6.250236751E-2,2.522276947E-3
8.333649002E-2,3.119688714E-3
1.041706125E-1,3.773079254E-3
1.250047350E-1,4.462223034E-3
1.458388575E-1,5.038285628E-3
1.666729800E-1,5.589355715E-3
1.875071025E-1,6.146659143E-3
2.083412250E-1,6.785621867E-3
2.291753476E-1,7.429184392E-3
2.500094701E-1,7.982814685E-3
2.708435926E-1,8.558269590E-3
2.916777151E-1,9.160922840E-3
3.125118376E-1,9.757511318E-3
3.333459601E-1,1.030856185E-2
3.541800826E-1,1.085984986E-2
3.750142051E-1,1.146231126E-2
3.958483276E-1,1.204824634E-2
4.166824501E-1,1.263018698E-2
4.375165726E-1,1.318893209E-2
4.583506951E-1,1.364032645E-2
4.791848176E-1,1.410540380E-2
5.000189401E-1,1.466436498E-2
5.208530626E-1,1.521630492E-2
5.416871851E-1,1.565660164E-2
5.625213076E-1,1.598252170E-2
5.833554301E-1,1.640715636E-2
6.041895526E-1,1.695622131E-2
6.250236751E-1,1.741408929E-2
6.458577976E-1,1.779012010E-2
6.666919201E-1,1.816651784E-2
6.875260427E-1,1.858077571E-2
7.083601652E-1,1.892469078E-2
7.291942877E-1,1.920322329E-2
7.500284102E-1,1.959188841E-2
7.708625327E-1,2.004120685E-2
7.916966552E-1,2.038970590E-2
8.125307777E-1,2.064890414E-2
8.333649002E-1,2.093492448E-2
8.541990227E-1,2.122331038E-2
8.750331452E-1,2.149446681E-2
8.958672677E-1,2.175562270E-2
9.167013902E-1,2.199212462E-2
9.375355127E-1,2.218767256E-2
9.583696352E-1,2.233612537E-2
9.792037577E-1,2.248879150E-2
1.000037880E0,2.266212739E-2
1.020872003E0,2.285319753E-2
1.041706125E0,2.296848223E-2
1.062540248E0,2.301963605E-2
1.083374370E0,2.309545502E-2
1.104208493E0,2.320706472E-2
1.125042615E0,2.325154468E-2
1.145876738E0,2.316716313E-2
1.166710860E0,2.315147221E-2
1.187544983E0,2.318361588E-2
1.208379105E0,2.311577275E-2
1.229213228E0,2.302996069E-2
1.250047350E0,2.295031585E-2
1.270881473E0,2.286741696E-2
1.291715595E0,2.271607518E-2
1.312549718E0,2.246186696E-2
1.333383840E0,2.225309238E-2
1.354217963E0,2.209273539E-2
1.375052085E0,2.190112136E-2
1.395886208E0,2.164189145E-2
1.416720330E0,2.131946012E-2
1.437554453E0,2.104219794E-2
1.458388575E0,2.078230307E-2
1.479222698E0,2.055733278E-2
1.500056820E0,2.031293511E-2
1.520890943E0,1.982137933E-2
1.541725065E0,1.921986416E-2
1.562559188E0,1.889442839E-2
1.583393310E0,1.892793924E-2
1.604227433E0,1.876589842E-2
1.625061555E0,1.800636388E-2
1.645895678E0,1.718954742E-2
1.666729800E0,1.675448567E-2
1.687563923E0,1.646470465E-2
1.708398045E0,1.604496688E-2
1.729232168E0,1.554736402E-2
1.750066290E0,1.515369676E-2
1.770900413E0,1.478492655E-2
1.791734535E0,1.429070998E-2
1.812568658E0,1.367251948E-2
1.833402780E0,1.305613015E-2
1.854236903E0,1.250223257E-2
1.875071025E0,1.189713366E-2
1.895905148E0,1.125184074E-2
1.916739270E0,1.067540050E-2
1.937573393E0,1.009294391E-2
1.958407515E0,9.390443563E-3
1.979241638E0,8.647107519E-3
2.000075760E0,8.027400821E-3
2.020909883E0,7.483470719E-3
2.041744005E0,6.910385564E-3
2.062578128E0,6.362860557E-3
2.083412250E0,5.741249304E-3
2.104246373E0,5.056097638E-3
2.125080495E0,4.476214759E-3
2.145914618E0,3.853294533E-3
2.166748740E0,3.154648235E-3
2.187582863E0,2.480142051E-3
2.208416985E0,1.799762947E-3
2.229251108E0,1.144762151E-3
2.250085231E0,4.027658433E-4
2.270919353E0,-3.933991538E-4
2.291753476E0,-1.091881422E-3
2.312587598E0,-1.760373125E-3
2.333421721E0,-2.377410885E-3
2.354255843E0,-3.032105276E-3
2.375089966E0,-3.760858905E-3
2.395924088E0,-4.467816092E-3
2.416758211E0,-5.190460943E-3
2.437592333E0,-5.816442892E-3
2.458426456E0,-6.402275525E-3
2.479260578E0,-7.047582418E-3
2.500094701E0,-7.694292348E-3
2.520928823E0,-8.346622810E-3
2.541762946E0,-8.969748393E-3
2.562597068E0,-9.630425833E-3
2.583431191E0,-1.029497571E-2
2.604265313E0,-1.090637874E-2
2.625099436E0,-1.153620798E-2
2.645933558E0,-1.217856817E-2
2.666767681E0,-1.283269934E-2
2.687601803E0,-1.338829100E-2
2.708435926E0,-1.385220233E-2
2.729270048E0,-1.435750723E-2
2.750104171E0,-1.485731732E-2
2.770938293E0,-1.540404931E-2
2.791772416E0,-1.596526243E-2
2.812606538E0,-1.646593958E-2
2.833440661E0,-1.696406677E-2
2.854274783E0,-1.740712672E-2
2.875108906E0,-1.785701141E-2
2.895943028E0,-1.832478493E-2
2.916777151E0,-1.876434684E-2
2.937611273E0,-1.915351115E-2
2.958445396E0,-1.944802701E-2
2.979279518E0,-1.979217306E-2
3.000113641E0,-2.015175857E-2
3.020947763E0,-2.046090923E-2
3.041781886E0,-2.077716030E-2
3.062616008E0,-2.107698098E-2
3.083450131E0,-2.139578387E-2
3.104284253E0,-2.164139971E-2
3.125118376E0,-2.181834914E-2
3.145952498E0,-2.205524594E-2
3.166786621E0,-2.229237929E-2
3.187620743E0,-2.248365805E-2
3.208454866E0,-2.266496979E-2
3.229288988E0,-2.284384891E-2
3.250123111E0,-2.298089117E-2
3.270957233E0,-2.305547521E-2
3.291791356E0,-2.315672673E-2
3.312625478E0,-2.327702940E-2
3.333459601E0,-2.331463993E-2
3.354293723E0,-2.329890803E-2
3.375127846E0,-2.325822227E-2
3.395961968E0,-2.323580720E-2
3.416796091E0,-2.318027616E-2
3.437630213E0,-2.304571867E-2
3.458464336E0,-2.294550091E-2
3.479298458E0,-2.290553600E-2
3.500132581E0,-2.279266343E-2
3.520966703E0,-2.255981416E-2
3.541800826E0,-2.236314863E-2
3.562634948E0,-2.220791206E-2
3.583469071E0,-2.196949162E-2
3.604303193E0,-2.177992463E-2
3.625137316E0,-2.158204280E-2
3.645971438E0,-2.125621773E-2
3.666805561E0,-2.099051327E-2
3.687639683E0,-2.071272209E-2
3.708473806E0,-2.034688182E-2
3.729307928E0,-2.004402131E-2
3.750142051E0,-1.975557394E-2
3.770976173E0,-1.936213300E-2
3.791810296E0,-1.874129288E-2
3.812644418E0,-1.812927239E-2
3.833478541E0,-1.798260398E-2
3.854312663E0,-1.809589006E-2
3.875146786E0,-1.784174889E-2
3.895980908E0,-1.703477278E-2
3.916815031E0,-1.608941704E-2
3.937649153E0,-1.531738602E-2
3.958483276E0,-1.487443410E-2
3.979317398E0,-1.460762694E-2
4.000151521E0,-1.424943563E-2
4.020985643E0,-1.397400349E-2
4.041819766E0,-1.367587876E-2
4.062653888E0,-1.318762917E-2
4.083488011E0,-1.266541705E-2
4.104322133E0,-1.212776080E-2
4.125156256E0,-1.150074229E-2
4.145990378E0,-1.080813259E-2
4.166824501E0,-1.017381065E-2
4.187658623E0,-9.592480026E-3
4.208492746E0,-8.969109505E-3
4.229326868E0,-8.333502337E-3
4.250160991E0,-7.648016326E-3
4.270995113E0,-6.994692143E-3
4.291829236E0,-6.477029063E-3
4.312663358E0,-5.948289298E-3
4.333497481E0,-5.350581836E-3
4.354331603E0,-4.821048584E-3
4.375165726E0,-4.283572081E-3
4.395999848E0,-3.639695002E-3
4.416833971E0,-3.003074788E-3
4.437668093E0,-2.389423549E-3
4.458502216E0,-1.863270532E-3
4.479336338E0,-1.351597253E-3
4.500170461E0,-6.595006562E-4
4.521004584E0,3.111872502E-5
4.541838706E0,6.384946173E-4
4.562672829E0,1.307685627E-3
4.583506951E0,1.975439023E-3
4.604341074E0,2.585024573E-3
4.625175196E0,3.201453481E-3
4.646009319E0,3.874721471E-3
4.666843441E0,4.590662662E-3
4.687677564E0,5.271998700E-3
4.708511686E0,5.857454613E-3
4.729345809E0,6.384959910E-3
4.750179931E0,6.935453042E-3
4.771014054E0,7.426450029E-3
4.791848176E0,7.910227403E-3
4.812682299E0,8.537342772E-3
4.833516421E0,9.162929840E-3
4.854350544E0,9.716222994E-3
4.875184666E0,1.031836867E-2
4.896018789E0,1.098441146E-2
4.916852911E0,1.163033396E-2
4.937687034E0,1.210376155E-2
4.958521156E0,1.248165965E-2
4.979355279E0,1.297177095E-2
5.000189401E0,1.356778108E-2
5.021023524E0,1.411516592E-2
5.041857646E0,1.452097856E-2
5.062691769E0,1.493722480E-2
5.083525891E0,1.543218642E-2
5.104360014E0,1.594098285E-2
5.125194136E0,1.639041677E-2
5.146028259E0,1.674209163E-2
5.166862381E0,1.714915223E-2
5.187696504E0,1.763483137E-2
5.208530626E0,1.807804592E-2
5.229364749E0,1.842380315E-2
5.250198871E0,1.877936348E-2
5.271032994E0,1.915256679E-2
5.291867116E0,1.946393028E-2
5.312701239E0,1.982279308E-2
5.333535361E0,2.016825229E-2
5.354369484E0,2.043842338E-2
5.375203606E0,2.075646073E-2
5.396037729E0,2.106567658E-2
5.416871851E0,2.130908147E-2
5.437705974E0,2.157576010E-2
5.458540096E0,2.183098719E-2
5.479374219E0,2.203874849E-2
5.500208341E0,2.226953581E-2
5.521042464E0,2.243970707E-2
5.541876586E0,2.256213501E-2
5.562710709E0,2.276059985E-2
5.583544831E0,2.288547158E-2
5.604378954E0,2.297205105E-2
5.625213076E0,2.308756486E-2
5.646047199E0,2.309260704E-2
5.666881321E0,2.311831899E-2
5.687715444E0,2.319965884E-2
5.708549566E0,2.318069153E-2
5.729383689E0,2.312050201E-2
5.750217811E0,2.309728041E-2
5.771051934E0,2.308071405E-2
5.791886056E0,2.301165089E-2
5.812720179E0,2.285394073E-2
5.833554301E0,2.266528644E-2
5.854388424E0,2.250872552E-2
5.875222546E0,2.238609456E-2
5.896056669E0,2.221360803E-2
5.916890791E0,2.195090801E-2
5.937724914E0,2.168777213E-2
5.958559036E0,2.139731869E-2
5.979393159E0,2.115990594E-2
6.000227281E0,2.095177770E-2
6.021061404E0,2.063430101E-2
6.041895526E0,2.031393722E-2
6.062729649E0,1.983848028E-2
6.083563771E0,1.931678690E-2
6.104397894E0,1.913018338E-2
6.125232016E0,1.919523068E-2
6.146066139E0,1.906139404E-2
6.166900261E0,1.837440766E-2
6.187734384E0,1.744892076E-2
6.208568506E0,1.673801243E-2
6.229402629E0,1.639068127E-2
6.250236751E0,1.606089436E-2
6.271070874E0,1.554115489E-2
6.291904996E0,1.520722732E-2
6.312739119E0,1.492512692E-2
6.333573241E0,1.445027255E-2
6.354407364E0,1.397993602E-2
6.375241486E0,1.344827935E-2
6.396075609E0,1.274338737E-2
6.416909731E0,1.205230132E-2
6.437743854E0,1.143651456E-2
6.458577976E0,1.081165206E-2
6.479412099E0,1.021597907E-2
6.500246221E0,9.609782137E-3
6.521080344E0,8.895853534E-3
6.541914466E0,8.242557757E-3
6.562748589E0,7.686905563E-3
6.583582711E0,7.051065098E-3
6.604416834E0,6.438842043E-3
6.625250956E0,5.891169421E-3
6.646085079E0,5.220349878E-3
6.666919201E0,4.481255077E-3
6.687753324E0,3.818738507E-3
6.708587446E0,3.209745744E-3
6.729421569E0,2.582813147E-3
6.750255692E0,1.958539709E-3
6.771089814E0,1.325853169E-3
6.791923937E0,5.695890868E-4
6.812758059E0,-2.094570518E-4
6.833592182E0,-8.803947130E-4
6.854426304E0,-1.557082171E-3
6.875260427E0,-2.259336878E-3
6.896094549E0,-2.958627651E-3
6.916928672E0,-3.677689238E-3
6.937762794E0,-4.458385054E-3
6.958596917E0,-5.263882224E-3
6.979431039E0,-5.925540812E-3
7.000265162E0,-6.495887879E-3
7.021099284E0,-7.114363369E-3
7.041933407E0,-7.726491895E-3
7.062767529E0,-8.314346895E-3
7.083601652E0,-8.929727599E-3
7.104435774E0,-9.507637471E-3
7.125269897E0,-1.010838337E-2
7.146104019E0,-1.083921082E-2
7.166938142E0,-1.153392531E-2
7.187772264E0,-1.209347881E-2
7.208606387E0,-1.272934303E-2
7.229440509E0,-1.337644272E-2
7.250274632E0,-1.387154311E-2
7.271108754E0,-1.437014807E-2
7.291942877E0,-1.489320211E-2
7.312776999E0,-1.541628968E-2
7.333611122E0,-1.590957306E-2
7.354445244E0,-1.637274772E-2
7.375279367E0,-1.687891036E-2
7.396113489E0,-1.735156961E-2
7.416947612E0,-1.779658720E-2
7.437781734E0,-1.822735555E-2
7.458615857E0,-1.861713454E-2
7.479449979E0,-1.897037774E-2
7.500284102E0,-1.925919019E-2
7.521118224E0,-1.958695985E-2
7.541952347E0,-1.998595893E-2
7.562786469E0,-2.038710751E-2
7.583620592E0,-2.077513188E-2
7.604454714E0,-2.113010734E-2
7.625288837E0,-2.146545425E-2
7.646122959E0,-2.170882747E-2
7.666957082E0,-2.185490727E-2
7.687791204E0,-2.209109440E-2
7.708625327E0,-2.242685296E-2
7.729459449E0,-2.266419306E-2
7.750293572E0,-2.276999131E-2
7.771127694E0,-2.290039696E-2
7.791961817E0,-2.302991785E-2
7.812795939E0,-2.314678766E-2
7.833630062E0,-2.326299623E-2
7.854464184E0,-2.328217588E-2
7.875298307E0,-2.327425033E-2
7.896132429E0,-2.336651087E-2
7.916966552E0,-2.346350253E-2
7.937800674E0,-2.336687408E-2
7.958634797E0,-2.321680449E-2
7.979468919E0,-2.317785844E-2
8.000303042E0,-2.312882990E-2
8.021137164E0,-2.301129699E-2
8.041971287E0,-2.284825779E-2
8.062805409E0,-2.272630110E-2
8.083639532E0,-2.264258452E-2
8.104473654E0,-2.240701020E-2
8.125307777E0,-2.207919024E-2
8.146141899E0,-2.179582044E-2
8.166976022E0,-2.156683803E-2
8.187810144E0,-2.134673670E-2
8.208644267E0,-2.099587023E-2
8.229478389E0,-2.055183612E-2
8.250312512E0,-2.018580586E-2
8.271146634E0,-1.991422474E-2
8.291980757E0,-1.961582527E-2
8.312814879E0,-1.931063831E-2
8.333649002E0,-1.892795414E-2
8.354483124E0,-1.833927259E-2
8.375317247E0,-1.796423830E-2
8.396151369E0,-1.794126630E-2
8.416985492E0,-1.765668951E-2
8.437819614E0,-1.693175547E-2
8.458653737E0,-1.616329327E-2
8.479487859E0,-1.565566659E-2
8.500321982E0,-1.523512043E-2
8.521156104E0,-1.473577227E-2
8.541990227E0,-1.427679136E-2
8.562824349E0,-1.383627206E-2
8.583658472E0,-1.344181132E-2
8.604492594E0,-1.302582026E-2
8.625326717E0,-1.252083667E-2
8.646160839E0,-1.195499487E-2
8.666994962E0,-1.133999974E-2
8.687829084E0,-1.080668997E-2
8.708663207E0,-1.028596051E-2
8.729497329E0,-9.677507915E-3
8.750331452E0,-9.006747976E-3
8.771165574E0,-8.380053565E-3
8.791999697E0,-7.859005593E-3
8.812833819E0,-7.316608913E-3
8.833667942E0,-6.664015818E-3
8.854502064E0,-5.993812345E-3
8.875336187E0,-5.501828156E-3
8.896170309E0,-5.020046607E-3
8.917004432E0,-4.329199903E-3
8.937838554E0,-3.558476456E-3
8.958672677E0,-2.987113316E-3
8.979506799E0,-2.597167855E-3
9.000340922E0,-1.973567065E-3
9.021175045E0,-1.255347743E-3
9.042009167E0,-6.997181918E-4
9.062843290E0,-1.534499461E-4
9.083677412E0,4.969363799E-4
9.104511535E0,1.227274770E-3
9.125345657E0,1.927061123E-3
9.146179780E0,2.534942934E-3
9.167013902E0,3.063258249E-3
9.187848025E0,3.698083339E-3
9.208682147E0,4.461934790E-3
9.229516270E0,5.132687278E-3
9.250350392E0,5.663674790E-3
9.271184515E0,6.156304851E-3
9.292018637E0,6.727414206E-3
9.312852760E0,7.321256213E-3
9.333686882E0,7.908726111E-3
9.354521005E0,8.502705954E-3
9.375355127E0,9.077169001E-3
9.396189250E0,9.723829105E-3
9.417023372E0,1.032516174E-2
9.437857495E0,1.085374597E-2
9.458691617E0,1.142034587E-2
9.479525740E0,1.196377724E-2
9.500359862E0,1.251442824E-2
9.521193985E0,1.303319633E-2
9.542028107E0,1.349570602E-2
9.562862230E0,1.397525333E-2
9.583696352E0,1.450284012E-2
9.604530475E0,1.501469128E-2
9.625364597E0,1.549219154E-2
9.646198720E0,1.593590714E-2
9.667032842E0,1.636999473E-2
9.687866965E0,1.688342728E-2
9.708701087E0,1.740443148E-2
9.729535210E0,1.783079654E-2
9.750369332E0,1.813175716E-2
9.771203455E0,1.846334897E-2
9.792037577E0,1.887971535E-2
9.812871700E0,1.926403120E-2
9.833705822E0,1.964040473E-2
9.854539945E0,1.999543607E-2
9.875374067E0,2.032076567E-2
9.896208190E0,2.061843127E-2
9.917042312E0,2.091988549E-2
9.937876435E0,2.120871097E-2
9.958710557E0,2.147033066E-2
9.979544680E0,2.171281353E-2
1.000037880E1,2.193219587E-2
1.002121292E1,2.220204100E-2
1.004204705E1,2.243530005E-2
1.006288117E1,2.260269225E-2
1.008371529E1,2.280344069E-2
1.010454941E1,2.295953035E-2
1.012538354E1,2.304708771E-2
1.014621766E1,2.314216830E-2
1.016705178E1,2.324930765E-2
1.018788590E1,2.329996973E-2
1.020872003E1,2.331198752E-2
1.022955415E1,2.334213443E-2
1.025038827E1,2.333127894E-2
1.027122239E1,2.330096439E-2
1.029205652E1,2.325357124E-2
1.031289064E1,2.313086390E-2
1.033372476E1,2.307380363E-2
1.035455888E1,2.303934656E-2
1.037539301E1,2.285364084E-2
1.039622713E1,2.265978232E-2
1.041706125E1,2.252466232E-2
1.043789537E1,2.232785150E-2
1.045872950E1,2.211154252E-2
1.047956362E1,2.193752304E-2
1.050039774E1,2.169843763E-2
1.052123186E1,2.134170756E-2
1.054206599E1,2.095737122E-2
1.056290011E1,2.066578157E-2
1.058373423E1,2.048015222E-2
1.060456835E1,2.012221329E-2
1.062540248E1,1.949999109E-2
1.064623660E1,1.906546019E-2
1.066707072E1,1.904948615E-2
1.068790484E1,1.898652129E-2
1.070873897E1,1.835559122E-2
1.072957309E1,1.745510660E-2
1.075040721E1,1.688595861E-2
1.077124133E1,1.657425240E-2
1.079207546E1,1.618920825E-2
1.081290958E1,1.567115262E-2
1.083374370E1,1.520915423E-2
1.085457782E1,1.485258713E-2
1.087541195E1,1.437656116E-2
1.089624607E1,1.386761200E-2
1.091708019E1,1.332245022E-2
1.093791431E1,1.263884641E-2
1.095874844E1,1.197279524E-2
1.097958256E1,1.135481149E-2
1.100041668E1,1.082587708E-2
1.102125080E1,1.023870055E-2
1.104208493E1,9.525062516E-3
1.106291905E1,8.832832798E-3
1.108375317E1,8.194623515E-3
1.110458729E1,7.557788864E-3
1.112542142E1,6.892814767E-3
1.114625554E1,6.351566408E-3
1.116708966E1,5.788634066E-3
1.118792378E1,5.055809394E-3
1.120875791E1,4.348918796E-3
1.122959203E1,3.730551340E-3
1.125042615E1,3.141411347E-3
1.127126028E1,2.507650061E-3
1.129209440E1,1.855870127E-3
1.131292852E1,1.141007175E-3
1.133376264E1,3.871879599E-4
1.135459677E1,-2.529353369E-4
1.137543089E1,-9.404883021E-4
1.139626501E1,-1.643752563E-3
1.141709913E1,-2.276210347E-3
1.143793326E1,-2.959200181E-3
1.145876738E1,-3.611937165E-3
1.147960150E1,-4.303522408E-3
1.150043562E1,-5.074947607E-3
1.152126975E1,-5.776721053E-3
1.154210387E1,-6.397010759E-3
1.156293799E1,-7.011160254E-3
1.158377211E1,-7.678256836E-3
1.160460624E1,-8.303696290E-3
1.162544036E1,-8.853053674E-3
1.164627448E1,-9.437165223E-3
1.166710860E1,-1.010567043E-2
1.168794273E1,-1.080874819E-2
1.170877685E1,-1.141738892E-2
1.172961097E1,-1.197135169E-2
1.175044509E1,-1.259346213E-2
1.177127922E1,-1.321317255E-2
1.179211334E1,-1.369360369E-2
1.181294746E1,-1.413715072E-2
1.183378158E1,-1.472122688E-2
1.185461571E1,-1.530519873E-2
1.187544983E1,-1.576583833E-2
1.189628395E1,-1.619154774E-2
1.191711807E1,-1.671127230E-2
1.193795220E1,-1.724032313E-2
1.195878632E1,-1.762481779E-2
1.197962044E1,-1.803325489E-2
1.200045456E1,-1.848263107E-2
1.202128869E1,-1.885600761E-2
1.204212281E1,-1.924992539E-2
1.206295693E1,-1.964623854E-2
1.208379105E1,-1.998994686E-2
1.210462518E1,-2.029161155E-2
1.212545930E1,-2.059770934E-2
1.214629342E1,-2.091901191E-2
1.216712754E1,-2.122385800E-2
1.218796167E1,-2.147959545E-2
1.220879579E1,-2.170116082E-2
1.222962991E1,-2.196900547E-2
1.225046403E1,-2.224652283E-2
1.227129816E1,-2.244718559E-2
1.229213228E1,-2.258129045E-2
1.231296640E1,-2.269188687E-2
1.233380052E1,-2.277668007E-2
1.235463465E1,-2.289007604E-2
1.237546877E1,-2.302727103E-2
1.239630289E1,-2.312199026E-2
1.241713701E1,-2.317144908E-2
1.243797114E1,-2.327111363E-2
1.245880526E1,-2.335265651E-2
1.247963938E1,-2.325624228E-2
1.250047350E1,-2.313335240E-2
1.252130763E1,-2.305056155E-2
1.254214175E1,-2.297804691E-2
1.256297587E1,-2.288094535E-2
1.258380999E1,-2.273278311E-2
1.260464412E1,-2.263799682E-2
1.262547824E1,-2.249116637E-2
1.264631236E1,-2.225595526E-2
1.266714648E1,-2.203589305E-2
1.268798061E1,-2.178910933E-2
1.270881473E1,-2.151693404E-2
1.272964885E1,-2.121094987E-2
1.275048297E1,-2.091730572E-2
1.277131710E1,-2.064104751E-2
1.279215122E1,-2.030042559E-2
1.281298534E1,-1.998276822E-2
1.283381946E1,-1.972067915E-2
1.285465359E1,-1.935823448E-2
1.287548771E1,-1.886931807E-2
1.289632183E1,-1.834958047E-2
1.291715595E1,-1.796709932E-2
1.293799008E1,-1.789567620E-2
1.295882420E1,-1.777410693E-2
1.297965832E1,-1.713488065E-2
1.300049244E1,-1.620979980E-2
1.302132657E1,-1.559544355E-2
1.304216069E1,-1.524184085E-2
1.306299481E1,-1.469194144E-2
1.308382893E1,-1.422511414E-2
1.310466306E1,-1.400411688E-2
1.312549718E1,-1.362150349E-2
1.314633130E1,-1.314511523E-2
1.316716542E1,-1.270867698E-2
1.318799955E1,-1.211580634E-2
1.320883367E1,-1.145414449E-2
1.322966779E1,-1.089633442E-2
1.325050191E1,-1.034876425E-2
1.327133604E1,-9.775967337E-3
1.329217016E1,-9.194127284E-3
1.331300428E1,-8.539129980E-3
1.333383840E1,-7.901545614E-3
1.335467253E1,-7.359782234E-3
1.337550665E1,-6.796051282E-3
1.339634077E1,-6.120499689E-3
1.341717489E1,-5.561967846E-3
1.343800902E1,-5.120309535E-3
1.345884314E1,-4.482691176E-3
1.347967726E1,-3.794695949E-3
1.350051138E1,-3.221832681E-3
1.352134551E1,-2.689664019E-3
1.354217963E1,-2.151296008E-3
1.356301375E1,-1.550040906E-3
1.358384787E1,-9.321942925E-4
1.360468200E1,-3.616865142E-4
1.362551612E1,2.584881149E-4
1.364635024E1,9.887015913E-4
1.366718436E1,1.670212252E-3
1.368801849E1,2.256139880E-3
1.370885261E1,2.829176607E-3
1.372968673E1,3.449951764E-3
1.375052085E1,4.146006890E-3
1.377135498E1,4.792278633E-3
1.379218910E1,5.412397906E-3
1.381302322E1,6.016548723E-3
1.383385734E1,6.541633513E-3
1.385469147E1,7.064260077E-3
1.387552559E1,7.610159926E-3
1.389635971E1,8.186368272E-3
1.391719383E1,8.787702769E-3
1.393802796E1,9.426859207E-3
1.395886208E1,9.994011372E-3
1.397969620E1,1.046525314E-2
1.400053032E1,1.106119342E-2
1.402136445E1,1.166209113E-2
1.404219857E1,1.217559353E-2
